Date,Time,Open,High,Low,Close,Volume,OpenInt
2017-09-06,16:00:00,82.719,82.719,82.272,82.381,12204,0
2017-09-06,17:00:00,82.401,82.719,82.282,82.441,24504,0
2017-09-06,18:00:00,82.421,82.456,81.984,82.123,14349,0
2017-09-06,19:00:00,82.153,82.245,81.935,81.969,13224,0
2017-09-06,20:00:00,81.973,82.168,81.925,81.935,11677,0
2017-09-06,21:00:00,81.935,82.163,81.905,82.064,23966,0
2017-09-06,22:00:00,82.083,82.292,81.885,82.242,106678,0
2017-09-07,16:00:00,82.352,82.401,81.84,81.84,6457,0
2017-09-07,17:00:00,81.91,82.361,81.716,82.262,19895,0
2017-09-07,18:00:00,82.198,82.729,81.944,82.178,25574,0
2017-09-07,19:00:00,82.222,82.471,82.143,82.332,19641,0
2017-09-07,20:00:00,82.371,82.54,82.282,82.513,20944,0
2017-09-07,21:00:00,82.52,82.734,82.48,82.57,22484,0
2017-09-07,22:00:00,82.59,83.126,82.411,82.997,83652,0
2017-09-08,16:00:00,82.888,82.888,82.163,82.361,8959,0
2017-09-08,17:00:00,82.381,83.205,82.322,83.176,14675,0
2017-09-08,18:00:00,83.146,83.344,83.126,83.205,11533,0
2017-09-08,19:00:00,83.146,83.374,83.096,83.354,12312,0
2017-09-08,20:00:00,83.354,83.562,83.324,83.344,28183,0
2017-09-08,21:00:00,83.275,83.434,83.185,83.344,12363,0
2017-09-08,22:00:00,83.324,83.394,83.116,83.205,76458,0
2017-09-11,16:00:00,83.702,84.545,83.384,84.218,12087,0
2017-09-11,17:00:00,84.218,84.406,84.009,84.118,16579,0
2017-09-11,18:00:00,84.158,84.287,84.098,84.198,18517,0
2017-09-11,19:00:00,84.188,84.208,84.069,84.148,14071,0
2017-09-11,20:00:00,84.098,84.396,84.098,84.218,16237,0
2017-09-11,21:00:00,84.228,84.346,84.188,84.188,13761,0
2017-09-11,22:00:00,84.191,84.506,84.191,84.496,71572,0
2017-09-12,16:00:00,84.307,84.814,84.307,84.506,9123,0
2017-09-12,17:00:00,84.506,84.526,84.118,84.136,12717,0
2017-09-12,18:00:00,84.118,84.277,84.088,84.238,15391,0
2017-09-12,19:00:00,84.228,84.516,84.118,84.396,11573,0
2017-09-12,20:00:00,84.397,84.446,84.218,84.426,10458,0
2017-09-12,21:00:00,84.426,84.466,84.277,84.386,53263,0
2017-09-12,22:00:00,84.406,84.585,84.347,84.575,71537,0
2017-09-13,16:00:00,83.99,84.406,83.751,83.86,18734,0
2017-09-13,17:00:00,83.84,84.059,83.781,83.97,27593,0
2017-09-13,18:00:00,83.97,83.99,83.825,83.83,12316,0
2017-09-13,19:00:00,83.88,84.069,83.84,83.962,20262,0
2017-09-13,20:00:00,83.962,84.014,83.92,83.98,8419,0
2017-09-13,21:00:00,83.98,84.416,83.94,84.337,15104,0
2017-09-13,22:00:00,84.297,84.347,83.84,83.88,92058,0
2017-09-14,16:00:00,83.89,83.975,83.702,83.92,7288,0
2017-09-14,17:00:00,83.92,83.96,83.543,83.796,14963,0
2017-09-14,18:00:00,83.83,84.039,83.731,83.88,14407,0
2017-09-14,19:00:00,83.97,84.277,83.97,84.277,8222,0
2017-09-14,20:00:00,84.277,84.436,84.253,84.426,9592,0
2017-09-14,21:00:00,84.436,84.476,84.277,84.317,12812,0
2017-09-14,22:00:00,84.307,84.366,84.178,84.248,64445,0
2017-09-15,16:00:00,84.118,84.327,84.088,84.138,38342,0
2017-09-15,17:00:00,84.079,84.118,83.86,83.99,11760,0
2017-09-15,18:00:00,83.999,84.019,83.89,83.93,14078,0
2017-09-15,19:00:00,83.94,84.294,83.88,84.088,27426,0
2017-09-15,20:00:00,84.088,84.287,84.088,84.248,9706,0
2017-09-15,21:00:00,84.258,84.307,84.218,84.258,10297,0
2017-09-15,22:00:00,84.228,84.228,83.99,84.088,212926,0
2017-09-18,16:00:00,84.347,84.476,84.118,84.208,12038,0
2017-09-18,17:00:00,84.203,84.624,84.203,84.624,15990,0
2017-09-18,18:00:00,84.624,84.794,84.591,84.684,6025,0
2017-09-18,19:00:00,84.694,84.734,84.615,84.674,10957,0
2017-09-18,20:00:00,84.679,84.863,84.575,84.853,11044,0
2017-09-18,21:00:00,84.848,84.992,84.694,84.962,24259,0
2017-09-18,22:00:00,84.952,85.042,84.764,84.814,77820,0
2017-09-19,16:00:00,84.804,84.962,84.406,84.585,9371,0
2017-09-19,17:00:00,84.585,84.734,84.327,84.565,18996,0
2017-09-19,18:00:00,84.565,84.664,84.396,84.585,11981,0
2017-09-19,19:00:00,84.585,84.714,84.506,84.615,8619,0
2017-09-19,20:00:00,84.615,84.804,84.541,84.764,16346,0
2017-09-19,21:00:00,84.764,85.111,84.764,85.002,32087,0
2017-09-19,22:00:00,84.982,85.131,84.883,84.932,118406,0
2017-09-20,16:00:00,85.032,85.23,85.012,85.183,8789,0
2017-09-20,17:00:00,85.26,85.389,85.032,85.24,8751,0
2017-09-20,18:00:00,85.23,85.608,85.16,85.578,7162,0
2017-09-20,19:00:00,85.558,85.598,85.325,85.369,11678,0
2017-09-20,20:00:00,85.389,85.428,85.195,85.379,8835,0
2017-09-20,21:00:00,85.389,85.518,85.17,85.438,15108,0
2017-09-20,22:00:00,85.448,85.518,85.35,85.488,81180,0
2017-09-21,16:00:00,85.448,85.548,85.238,85.538,5181,0
2017-09-21,17:00:00,85.588,85.886,85.548,85.871,13798,0
2017-09-21,18:00:00,85.866,86.084,85.756,86.034,19706,0
2017-09-21,19:00:00,86.024,86.124,85.826,85.836,15065,0
2017-09-21,20:00:00,85.856,85.866,85.628,85.667,19407,0
2017-09-21,21:00:00,85.676,85.726,85.548,85.706,20881,0
2017-09-21,22:00:00,85.716,85.756,85.478,85.518,64834,0
2017-09-22,16:00:00,85.568,85.637,85.2,85.27,6977,0
2017-09-22,17:00:00,85.21,85.27,84.972,84.992,19782,0
2017-09-22,18:00:00,85.012,85.111,84.952,85.012,5838,0
2017-09-22,19:00:00,85.082,85.21,85.032,85.042,45772,0
2017-09-22,20:00:00,85.043,85.165,84.957,85.121,13940,0
2017-09-22,21:00:00,85.101,85.111,84.823,85.111,17050,0
2017-09-22,22:00:00,85.096,85.17,85.082,85.091,53946,0
2017-09-25,16:00:00,85.121,85.2,84.724,84.744,8709,0
2017-09-25,17:00:00,84.754,85.36,84.754,85.042,8725,0
2017-09-25,18:00:00,84.942,85.25,84.814,85.25,12465,0
2017-09-25,19:00:00,85.25,85.974,85.23,85.706,30247,0
2017-09-25,20:00:00,85.706,85.886,85.667,85.886,20816,0
2017-09-25,21:00:00,85.886,86.203,85.811,86.193,26740,0
2017-09-25,22:00:00,86.144,86.252,86.014,86.124,58027,0
2017-09-26,16:00:00,86.461,86.68,86.317,86.432,20069,0
2017-09-26,17:00:00,86.452,86.452,85.848,85.999,29685,0
2017-09-26,18:00:00,86.024,86.164,85.876,85.876,9756,0
2017-09-26,19:00:00,85.876,86.069,85.816,85.906,10773,0
2017-09-26,20:00:00,85.964,86.104,85.955,86.084,7219,0
2017-09-26,21:00:00,86.084,86.223,85.984,86.193,13252,0
2017-09-26,22:00:00,86.213,86.282,86.094,86.114,70958,0
2017-09-27,16:00:00,86.164,86.292,85.657,85.955,7470,0
2017-09-27,17:00:00,85.955,86.134,85.657,85.706,20193,0
2017-09-27,18:00:00,85.731,85.866,85.578,85.866,44396,0
2017-09-27,19:00:00,85.915,85.994,85.657,85.801,19204,0
2017-09-27,20:00:00,85.796,85.891,85.664,85.766,32613,0
2017-09-27,21:00:00,85.786,85.935,85.736,85.814,20122,0
2017-09-27,22:00:00,85.846,86.044,85.826,85.906,68461,0
2017-09-28,16:00:00,85.726,86.332,85.458,85.945,5477,0
2017-09-28,17:00:00,85.901,86.193,85.776,86.094,11358,0
2017-09-28,18:00:00,86.114,86.739,86.054,86.65,12344,0
2017-09-28,19:00:00,86.67,86.858,86.52,86.749,9779,0
2017-09-28,20:00:00,86.739,86.868,86.64,86.778,11448,0
2017-09-28,21:00:00,86.759,86.768,86.442,86.57,13355,0
2017-09-28,22:00:00,86.57,86.57,86.342,86.442,122246,0
2017-09-29,16:00:00,86.382,86.382,85.896,86.154,8210,0
2017-09-29,17:00:00,86.134,86.49,86.044,86.352,11747,0
2017-09-29,18:00:00,86.242,86.242,86.064,86.154,8525,0
2017-09-29,19:00:00,86.164,86.164,85.796,85.796,11301,0
2017-09-29,20:00:00,85.776,86.024,85.687,85.999,10687,0
2017-09-29,21:00:00,85.974,85.994,85.866,85.979,8683,0
2017-09-29,22:00:00,85.979,86.029,85.667,85.677,114387,0
2017-10-02,16:00:00,86.174,86.888,85.906,86.63,11281,0
2017-10-02,17:00:00,86.595,86.928,86.522,86.729,18543,0
2017-10-02,18:00:00,86.72,86.838,86.53,86.62,15229,0
2017-10-02,19:00:00,86.63,87.056,86.6,87.036,30845,0
2017-10-02,20:00:00,87.066,87.106,86.759,86.828,17035,0
2017-10-02,21:00:00,86.898,87.086,86.828,87.086,12315,0
2017-10-02,22:00:00,87.106,87.324,87.007,87.236,97049,0
2017-10-03,16:00:00,87.256,87.792,87.256,87.514,9349,0
2017-10-03,17:00:00,87.544,87.702,87.494,87.672,11758,0
2017-10-03,18:00:00,87.642,87.642,87.414,87.524,22446,0
2017-10-03,19:00:00,87.524,87.582,87.454,87.544,18787,0
2017-10-03,20:00:00,87.494,87.592,87.251,87.572,15562,0
2017-10-03,21:00:00,87.592,87.672,87.414,87.632,18702,0
2017-10-03,22:00:00,87.692,87.792,87.615,87.782,73271,0
2017-10-04,16:00:00,87.612,88.01,87.612,88.01,13729,0
2017-10-04,17:00:00,88.01,88.198,87.821,87.925,7764,0
2017-10-04,18:00:00,87.98,88.168,87.95,88.04,21556,0
2017-10-04,19:00:00,88.108,88.113,87.792,87.895,22079,0
2017-10-04,20:00:00,87.88,87.99,87.792,87.85,12730,0
2017-10-04,21:00:00,87.86,87.86,87.374,87.394,24199,0
2017-10-04,22:00:00,87.394,87.563,87.275,87.494,89459,0
2017-10-05,16:00:00,87.86,88.08,86.978,87.126,7889,0
2017-10-05,17:00:00,87.106,87.364,86.978,87.246,8675,0
2017-10-05,18:00:00,87.256,87.464,87.106,87.464,10107,0
2017-10-05,19:00:00,87.464,87.464,87.027,87.036,18312,0
2017-10-05,20:00:00,87.007,87.295,86.978,87.266,17301,0
2017-10-05,21:00:00,87.266,87.384,87.231,87.384,16413,0
2017-10-05,22:00:00,87.424,87.524,87.304,87.494,69058,0
2017-10-06,16:00:00,87.394,87.622,87.257,87.622,7590,0
2017-10-06,17:00:00,87.682,87.93,87.682,87.792,8908,0
2017-10-06,18:00:00,87.732,87.821,87.722,87.727,9983,0
2017-10-06,19:00:00,87.752,87.89,87.704,87.802,9776,0
2017-10-06,20:00:00,87.831,87.88,87.667,87.86,10841,0
2017-10-06,21:00:00,87.831,87.96,87.831,87.96,10665,0
2017-10-06,22:00:00,87.95,87.98,87.752,87.93,69761,0
2017-10-09,16:00:00,88.03,88.138,87.692,87.85,9702,0
2017-10-09,17:00:00,87.85,87.95,87.762,87.93,12322,0
2017-10-09,18:00:00,87.93,88.01,87.802,87.87,13953,0
2017-10-09,19:00:00,87.89,87.93,87.836,87.84,3906,0
2017-10-09,20:00:00,87.87,87.93,87.772,87.85,5501,0
2017-10-09,21:00:00,87.812,87.95,87.757,87.875,21752,0
2017-10-09,22:00:00,87.87,87.87,87.682,87.812,45868,0
2017-10-10,16:00:00,87.95,88.09,87.712,87.94,8833,0
2017-10-10,17:00:00,87.87,88.218,87.821,87.93,23745,0
2017-10-10,18:00:00,87.95,88.08,87.93,87.96,12942,0
2017-10-10,19:00:00,87.975,88.03,87.85,87.86,15004,0
2017-10-10,20:00:00,87.85,87.95,87.672,87.712,12957,0
2017-10-10,21:00:00,87.687,87.712,87.572,87.672,16425,0
2017-10-10,22:00:00,87.672,88.02,87.652,87.821,65114,0
2017-10-11,16:00:00,87.831,88.148,87.772,87.96,6196,0
2017-10-11,17:00:00,87.87,87.92,87.572,87.572,7846,0
2017-10-11,18:00:00,87.553,87.831,87.544,87.767,9637,0
2017-10-11,19:00:00,87.742,87.85,87.732,87.777,5307,0
2017-10-11,20:00:00,87.752,87.777,87.602,87.657,10727,0
2017-10-11,21:00:00,87.672,88.01,87.612,87.702,30781,0
2017-10-11,22:00:00,87.697,87.797,87.612,87.712,58841,0
2017-10-12,16:00:00,87.85,88.01,87.572,87.572,3667,0
2017-10-12,17:00:00,87.602,88.06,87.602,88.03,12252,0
2017-10-12,18:00:00,88.03,88.03,87.831,87.91,9587,0
2017-10-12,19:00:00,87.88,87.94,87.812,87.86,11023,0
2017-10-12,20:00:00,87.84,87.98,87.821,87.97,11294,0
2017-10-12,21:00:00,87.98,88.03,87.85,87.91,17787,0
2017-10-12,22:00:00,87.92,87.93,87.762,87.84,66309,0
2017-10-13,16:00:00,88.04,88.461,88.04,88.436,4659,0
2017-10-13,17:00:00,88.436,88.714,88.396,88.654,34542,0
2017-10-13,18:00:00,88.654,88.664,88.436,88.516,10953,0
2017-10-13,19:00:00,88.486,88.606,88.348,88.348,8208,0
2017-10-13,20:00:00,88.358,88.536,88.298,88.526,8132,0
2017-10-13,21:00:00,88.526,88.644,88.436,88.456,13403,0
2017-10-13,22:00:00,88.446,88.476,88.138,88.188,82063,0
2017-10-16,16:00:00,88.268,88.268,87.692,87.792,20399,0
2017-10-16,17:00:00,87.831,87.93,87.324,87.409,16717,0
2017-10-16,18:00:00,87.394,87.591,87.334,87.553,16476,0
2017-10-16,19:00:00,87.602,87.742,87.474,87.702,10729,0
2017-10-16,20:00:00,87.672,87.91,87.662,87.697,16271,0
2017-10-16,21:00:00,87.642,87.91,87.642,87.772,17114,0
2017-10-16,22:00:00,87.802,88.288,87.802,88.288,92765,0
2017-10-17,16:00:00,88.644,88.644,88.06,88.348,8440,0
2017-10-17,17:00:00,88.348,88.406,88.208,88.218,8595,0
2017-10-17,18:00:00,88.218,88.536,88.208,88.506,9296,0
2017-10-17,19:00:00,88.486,88.486,88.358,88.372,15632,0
2017-10-17,20:00:00,88.376,88.396,88.268,88.358,7927,0
2017-10-17,21:00:00,88.353,88.416,88.248,88.288,10374,0
2017-10-17,22:00:00,88.293,88.328,88.178,88.328,78740,0
2017-10-18,16:00:00,88.08,88.714,88.08,88.09,11711,0
2017-10-18,17:00:00,88.208,88.208,87.672,87.925,27627,0
2017-10-18,18:00:00,87.93,87.97,87.812,87.84,18474,0
2017-10-18,19:00:00,87.89,88.127,87.86,88.07,12239,0
2017-10-18,20:00:00,88.05,88.198,88.02,88.04,13090,0
2017-10-18,21:00:00,88.04,88.208,87.9,87.9,20443,0
2017-10-18,22:00:00,87.9,88.02,87.87,87.95,64768,0
2017-10-19,16:00:00,87.86,88.148,87.86,88.06,6097,0
2017-10-19,17:00:00,88.05,88.148,87.98,88.099,16758,0
2017-10-19,18:00:00,88.178,88.178,87.702,87.86,7941,0
2017-10-19,19:00:00,87.93,87.99,87.85,87.85,5638,0
2017-10-19,20:00:00,87.92,88.05,87.87,87.99,7198,0
2017-10-19,21:00:00,88.02,88.08,87.762,87.812,11522,0
2017-10-19,22:00:00,87.831,88.08,87.772,87.99,59184,0
2017-10-20,16:00:00,88.576,88.576,88.05,88.367,8499,0
2017-10-20,17:00:00,88.396,88.636,88.328,88.636,4917,0
2017-10-20,18:00:00,88.626,88.654,88.426,88.516,8578,0
2017-10-20,19:00:00,88.516,88.586,88.486,88.496,11149,0
2017-10-20,20:00:00,88.506,88.546,88.416,88.456,10781,0
2017-10-20,21:00:00,88.456,88.496,88.358,88.406,15151,0
2017-10-20,22:00:00,88.376,88.546,88.318,88.546,39216,0
2017-10-23,16:00:00,88.506,88.824,88.506,88.824,5960,0
2017-10-23,17:00:00,88.824,89.017,88.714,88.884,6188,0
2017-10-23,18:00:00,88.814,88.904,88.744,88.794,4384,0
2017-10-23,19:00:00,88.734,88.774,88.318,88.486,18352,0
2017-10-23,20:00:00,88.456,88.516,88.348,88.348,7597,0
2017-10-23,21:00:00,88.348,88.496,88.268,88.456,22997,0
2017-10-23,22:00:00,88.476,88.536,88.318,88.376,40952,0
2017-10-24,16:00:00,88.406,88.975,88.406,88.626,4631,0
2017-10-24,17:00:00,88.476,88.476,88.178,88.367,14423,0
2017-10-24,18:00:00,88.363,88.516,88.238,88.268,11790,0
2017-10-24,19:00:00,88.188,88.556,88.188,88.505,15010,0
2017-10-24,20:00:00,88.516,88.576,88.386,88.526,11201,0
2017-10-24,21:00:00,88.566,88.744,88.516,88.581,10519,0
2017-10-24,22:00:00,88.596,88.664,88.386,88.466,88878,0
2017-10-25,16:00:00,88.416,88.814,88.188,88.382,3534,0
2017-10-25,17:00:00,88.456,88.496,87.434,87.459,43804,0
2017-10-25,18:00:00,87.568,87.712,87.404,87.484,32945,0
2017-10-25,19:00:00,87.434,87.434,87.046,87.226,13631,0
2017-10-25,20:00:00,87.266,87.592,87.126,87.544,12913,0
2017-10-25,21:00:00,87.534,87.672,87.439,87.539,9946,0
2017-10-25,22:00:00,87.582,87.97,87.563,87.84,46209,0
2017-10-26,16:00:00,88.158,88.358,87.95,88.188,10882,0
2017-10-26,17:00:00,88.253,88.456,88.05,88.148,21192,0
2017-10-26,18:00:00,88.178,88.338,88.04,88.238,17289,0
2017-10-26,19:00:00,88.248,88.566,88.138,88.138,22378,0
2017-10-26,20:00:00,88.178,88.466,87.96,88.446,21182,0
2017-10-26,21:00:00,88.456,88.586,88.288,88.32,17472,0
2017-10-26,22:00:00,88.288,88.396,88.128,88.288,85344,0
2017-10-27,16:00:00,88.744,88.744,86.154,86.292,38942,0
2017-10-27,17:00:00,86.362,86.452,85.906,86.029,46143,0
2017-10-27,18:00:00,86.029,86.074,85.26,85.696,50443,0
2017-10-27,19:00:00,85.667,86.322,85.628,86.218,49203,0
2017-10-27,20:00:00,86.213,87.206,86.203,86.625,65402,0
2017-10-27,21:00:00,86.695,86.988,86.57,86.938,39188,0
2017-10-27,22:00:00,86.958,87.404,86.958,87.285,166189,0
2017-10-30,15:00:00,86.818,86.948,86.282,86.61,22283,0
2017-10-30,16:00:00,86.481,86.58,85.756,85.935,32262,0
2017-10-30,17:00:00,85.876,85.955,85.618,85.955,24725,0
2017-10-30,18:00:00,85.925,86.024,85.876,85.994,10646,0
2017-10-30,19:00:00,86.054,86.174,85.896,85.906,14088,0
2017-10-30,20:00:00,85.906,85.935,85.776,85.831,17195,0
2017-10-30,21:00:00,85.816,85.896,85.647,85.826,90195,0
2017-10-31,15:00:00,85.935,86.254,85.806,86.219,13575,0
2017-10-31,16:00:00,86.264,86.822,86.125,86.693,97796,0
2017-10-31,17:00:00,86.693,86.932,86.653,86.872,26426,0
2017-10-31,18:00:00,86.932,86.982,86.792,86.832,18354,0
2017-10-31,19:00:00,86.852,86.922,86.752,86.777,17484,0
2017-10-31,20:00:00,86.782,86.842,86.673,86.792,25669,0
2017-10-31,21:00:00,86.852,86.952,86.742,86.752,215387,0
2017-11-01,15:00:00,87.51,87.749,87.051,87.579,37407,0
2017-11-01,16:00:00,87.799,87.799,87.171,87.36,45885,0
2017-11-01,17:00:00,87.37,87.43,87.141,87.43,13003,0
2017-11-01,18:00:00,87.42,87.42,86.892,86.982,19335,0
2017-11-01,19:00:00,86.982,87.151,86.892,87.111,17629,0
2017-11-01,20:00:00,87.131,87.38,87.111,87.261,31242,0
2017-11-01,21:00:00,87.251,87.271,86.942,87.091,59126,0
2017-11-02,15:00:00,86.772,87.051,86.414,86.603,29628,0
2017-11-02,16:00:00,86.493,86.703,86.025,86.454,17351,0
2017-11-02,17:00:00,86.394,86.513,86.145,86.354,13221,0
2017-11-02,18:00:00,86.354,86.463,86.284,86.424,14532,0
2017-11-02,19:00:00,86.425,86.513,86.374,86.374,14040,0
2017-11-02,20:00:00,86.364,86.503,86.055,86.065,18419,0
2017-11-02,21:00:00,86.085,86.434,86.005,86.284,87833,0
2017-11-03,15:00:00,86.284,86.533,86.284,86.444,5599,0
2017-11-03,16:00:00,86.374,86.723,86.324,86.513,26558,0
2017-11-03,17:00:00,86.513,86.862,86.493,86.683,14989,0
2017-11-03,18:00:00,86.683,86.723,86.493,86.573,18497,0
2017-11-03,19:00:00,86.583,86.583,86.444,86.573,17829,0
2017-11-03,20:00:00,86.588,86.623,86.483,86.623,17372,0
2017-11-03,21:00:00,86.633,86.683,86.573,86.623,69230,0
2017-11-06,16:00:00,86.703,86.762,85.92,86.025,10766,0
2017-11-06,17:00:00,86.145,86.274,85.796,85.796,18215,0
2017-11-06,18:00:00,85.826,85.985,85.646,85.706,19330,0
2017-11-06,19:00:00,85.806,85.876,85.587,85.656,17047,0
2017-11-06,20:00:00,85.656,85.846,85.417,85.567,23250,0
2017-11-06,21:00:00,85.427,85.666,85.367,85.537,18911,0
2017-11-06,22:00:00,85.527,85.846,85.427,85.537,96836,0
2017-11-07,16:00:00,85.537,85.796,85.417,85.686,14075,0
2017-11-07,17:00:00,85.686,85.706,85.248,85.362,21546,0
2017-11-07,18:00:00,85.372,85.577,85.367,85.477,74044,0
2017-11-07,19:00:00,85.457,85.552,85.417,85.496,68411,0
2017-11-07,20:00:00,85.487,85.597,85.318,85.382,32708,0
2017-11-07,21:00:00,85.358,85.382,85.074,85.308,28922,0
2017-11-07,22:00:00,85.308,85.417,85.168,85.407,100507,0
2017-11-08,16:00:00,85.367,86.125,85.367,85.995,14631,0
2017-11-08,17:00:00,86.065,86.284,85.517,85.796,30233,0
2017-11-08,18:00:00,85.627,85.736,85.427,85.696,17942,0
2017-11-08,19:00:00,85.696,85.696,85.427,85.482,12082,0
2017-11-08,20:00:00,85.497,85.607,85.412,85.507,13396,0
2017-11-08,21:00:00,85.497,85.587,85.457,85.487,16659,0
2017-11-08,22:00:00,85.517,85.577,85.328,85.417,87753,0
2017-11-09,16:00:00,84.889,85.108,84.58,84.74,4449,0
2017-11-09,17:00:00,84.68,84.939,84.65,84.919,5083,0
2017-11-09,18:00:00,84.919,85.088,84.59,84.67,16918,0
2017-11-09,19:00:00,84.57,84.57,84.232,84.301,7683,0
2017-11-09,20:00:00,84.232,84.521,84.122,84.202,5757,0
2017-11-09,21:00:00,84.152,84.172,84.012,84.137,9949,0
2017-11-09,22:00:00,84.127,84.575,84.042,84.451,68498,0
2017-11-10,16:00:00,84.042,84.8,83.913,84.66,9515,0
2017-11-10,17:00:00,84.67,84.8,84.446,84.57,14133,0
2017-11-10,18:00:00,84.6,84.65,84.301,84.511,18131,0
2017-11-10,19:00:00,84.511,84.7,84.441,84.501,11336,0
2017-11-10,20:00:00,84.501,84.57,84.252,84.262,8186,0
2017-11-10,21:00:00,84.262,84.62,84.262,84.58,13881,0
2017-11-10,22:00:00,84.58,84.78,84.55,84.6,72869,0
2017-11-13,16:00:00,84.311,84.959,84.311,84.849,5694,0
2017-11-13,17:00:00,84.929,85.168,84.67,84.697,14209,0
2017-11-13,18:00:00,84.65,85.039,84.65,84.939,10018,0
2017-11-13,19:00:00,84.974,85.238,84.969,85.198,18379,0
2017-11-13,20:00:00,85.188,85.397,85.084,85.397,9376,0
2017-11-13,21:00:00,85.397,85.447,85.248,85.318,11395,0
2017-11-13,22:00:00,85.288,85.358,85.168,85.278,50756,0
2017-11-14,16:00:00,85.069,85.258,84.929,84.939,4773,0
2017-11-14,17:00:00,84.949,85.158,84.849,85.098,10280,0
2017-11-14,18:00:00,85.113,85.397,84.999,85.288,21574,0
2017-11-14,19:00:00,85.288,85.497,85.268,85.367,12973,0
2017-11-14,20:00:00,85.367,85.547,85.358,85.437,8055,0
2017-11-14,21:00:00,85.417,85.577,85.328,85.532,7402,0
2017-11-14,22:00:00,85.547,85.547,85.208,85.298,63195,0
2017-11-15,16:00:00,85.228,85.577,84.765,85.268,13270,0
2017-11-15,17:00:00,85.228,85.666,85.188,85.666,13782,0
2017-11-15,18:00:00,85.646,85.646,85.303,85.517,11177,0
2017-11-15,19:00:00,85.477,85.537,85.268,85.362,15609,0
2017-11-15,20:00:00,85.362,85.377,85.238,85.238,10550,0
2017-11-15,21:00:00,85.228,85.238,85.168,85.208,10659,0
2017-11-15,22:00:00,85.228,85.348,85.148,85.168,60928,0
2017-11-16,16:00:00,85.427,85.706,85.288,85.427,11609,0
2017-11-16,17:00:00,85.477,85.876,85.377,85.562,34893,0
2017-11-16,18:00:00,85.567,85.716,85.387,85.656,25586,0
2017-11-16,19:00:00,85.666,86.005,85.666,85.965,16678,0
2017-11-16,20:00:00,85.975,86.184,85.965,86.075,20678,0
2017-11-16,21:00:00,86.095,86.135,85.866,85.866,21271,0
2017-11-16,22:00:00,85.866,85.97,85.746,85.796,71885,0
2017-11-17,16:00:00,85.716,85.925,85.168,85.567,7145,0
2017-11-17,17:00:00,85.447,85.821,85.447,85.671,15890,0
2017-11-17,18:00:00,85.567,85.876,85.537,85.669,18488,0
2017-11-17,19:00:00,85.647,85.836,85.627,85.706,16148,0
2017-11-17,20:00:00,85.696,85.716,85.497,85.507,11803,0
2017-11-17,21:00:00,85.507,85.517,85.328,85.407,14988,0
2017-11-17,22:00:00,85.407,85.537,85.328,85.338,45710,0
2017-11-20,16:00:00,85.298,85.826,85.298,85.706,6943,0
2017-11-20,17:00:00,85.756,86.115,85.607,85.925,19974,0
2017-11-20,18:00:00,85.995,86.09,85.258,85.338,26891,0
2017-11-20,19:00:00,85.358,85.377,85.118,85.158,17385,0
2017-11-20,20:00:00,85.198,85.198,85.029,85.128,14335,0
2017-11-20,21:00:00,85.168,85.298,85.158,85.188,17480,0
2017-11-20,22:00:00,85.188,85.228,85.009,85.158,66553,0
2017-11-21,16:00:00,85.607,85.906,85.029,85.029,12741,0
2017-11-21,17:00:00,85.009,85.886,85.009,85.856,14159,0
2017-11-21,18:00:00,85.856,85.955,85.726,85.915,12844,0
2017-11-21,19:00:00,85.935,86.145,85.896,86.095,18758,0
2017-11-21,20:00:00,86.07,86.314,86.055,86.095,37907,0
2017-11-21,21:00:00,86.065,86.274,86.065,86.274,14641,0
2017-11-21,22:00:00,86.284,86.503,86.184,86.224,86307,0
2017-11-22,16:00:00,86.294,86.304,85.726,85.816,8510,0
2017-11-22,17:00:00,85.866,85.901,85.547,85.756,15412,0
2017-11-22,18:00:00,85.796,85.876,85.537,85.587,7498,0
2017-11-22,19:00:00,85.666,85.676,85.507,85.507,4971,0
2017-11-22,20:00:00,85.487,85.726,85.477,85.676,11566,0
2017-11-22,21:00:00,85.716,85.766,85.557,85.557,10582,0
2017-11-22,22:00:00,85.547,85.786,85.537,85.537,46042,0
2017-11-24,16:00:00,85.178,85.706,84.79,85.268,21987,0
2017-11-24,17:00:00,85.248,85.776,85.178,85.656,15467,0
2017-11-24,18:00:00,85.646,85.756,85.597,85.683,12259,0
2017-11-24,19:00:00,85.716,86.025,85.706,85.915,26382,0
2017-11-24,20:00:00,85.935,85.935,85.935,85.935,11047,0
2017-11-27,16:00:00,86.055,86.493,86.055,86.394,10259,0
2017-11-27,17:00:00,86.434,86.434,86.204,86.304,35504,0
2017-11-27,18:00:00,86.284,86.414,86.184,86.414,31646,0
2017-11-27,19:00:00,86.364,86.613,86.364,86.488,15091,0
2017-11-27,20:00:00,86.503,86.623,86.454,86.623,18140,0
2017-11-27,21:00:00,86.623,86.683,86.384,86.533,23531,0
2017-11-27,22:00:00,86.538,86.593,86.414,86.424,112864,0
2017-11-28,16:00:00,86.962,87.151,86.628,86.802,13028,0
2017-11-28,17:00:00,86.732,86.842,86.583,86.673,14432,0
2017-11-28,18:00:00,86.643,86.653,86.463,86.583,11763,0
2017-11-28,19:00:00,86.583,86.583,86.115,86.304,14484,0
2017-11-28,20:00:00,86.334,86.444,86.175,86.194,13829,0
2017-11-28,21:00:00,86.224,86.683,86.145,86.673,17343,0
2017-11-28,22:00:00,86.613,86.713,86.533,86.593,78965,0
2017-11-29,16:00:00,86.792,87.4,86.762,87.4,9207,0
2017-11-29,17:00:00,87.37,87.42,86.932,87.031,18226,0
2017-11-29,18:00:00,87.006,87.3,87.006,87.28,15604,0
2017-11-29,19:00:00,87.261,87.33,86.952,87.121,14967,0
2017-11-29,20:00:00,87.091,87.106,86.882,86.932,14622,0
2017-11-29,21:00:00,86.942,87.031,86.932,86.972,18338,0
2017-11-29,22:00:00,86.952,87.33,86.942,87.241,68179,0
2017-11-30,16:00:00,87.29,87.41,86.762,87.35,19777,0
2017-11-30,17:00:00,87.28,87.54,87.251,87.43,17755,0
2017-11-30,18:00:00,87.43,87.838,87.43,87.838,18970,0
2017-11-30,19:00:00,87.878,88.576,87.878,88.396,13649,0
2017-11-30,20:00:00,88.396,88.486,87.958,88.088,18603,0
2017-11-30,21:00:00,88.088,88.117,87.918,87.998,21767,0
2017-11-30,22:00:00,87.978,88.247,87.908,88.088,75963,0
2017-12-01,16:00:00,88.008,88.665,88.008,88.396,10340,0
2017-12-01,17:00:00,88.068,88.381,87.589,87.589,25810,0
2017-12-01,18:00:00,87.579,87.624,86.125,86.543,27872,0
2017-12-01,19:00:00,86.623,86.992,86.603,86.962,16305,0
2017-12-01,20:00:00,86.957,87.42,86.957,87.3,12445,0
2017-12-01,21:00:00,87.32,87.42,87.101,87.131,21485,0
2017-12-01,22:00:00,87.111,87.52,87.106,87.28,81705,0
2017-12-04,16:00:00,87.47,88.088,87.001,87.968,28901,0
2017-12-04,17:00:00,87.993,88.337,87.54,88.337,31910,0
2017-12-04,18:00:00,88.337,88.376,87.699,88.058,25470,0
2017-12-04,19:00:00,88.097,88.167,87.928,88.028,12612,0
2017-12-04,20:00:00,88.038,88.038,87.762,87.878,13279,0
2017-12-04,21:00:00,87.883,87.908,87.589,87.828,19351,0
2017-12-04,22:00:00,87.828,87.888,87.659,87.739,101252,0
2017-12-05,16:00:00,88.008,88.097,87.709,87.819,14333,0
2017-12-05,17:00:00,87.789,87.998,87.569,87.789,17065,0
2017-12-05,18:00:00,87.868,88.526,87.848,88.366,16446,0
2017-12-05,19:00:00,88.317,88.456,88.247,88.456,8903,0
2017-12-05,20:00:00,88.466,88.835,88.466,88.705,17550,0
2017-12-05,21:00:00,88.685,88.805,88.576,88.665,19552,0
2017-12-05,22:00:00,88.66,88.835,88.606,88.675,110974,0
2017-12-06,16:00:00,88.616,88.616,87.799,88.446,6475,0
2017-12-06,17:00:00,88.376,88.416,88.038,88.177,26266,0
2017-12-06,18:00:00,88.177,88.217,88.008,88.008,10761,0
2017-12-06,19:00:00,88.049,88.063,87.799,87.858,20423,0
2017-12-06,20:00:00,87.868,88.217,87.804,88.048,10950,0
2017-12-06,21:00:00,88.088,88.177,87.918,88.038,14917,0
2017-12-06,22:00:00,88.038,88.097,87.814,87.848,117681,0
2017-12-07,16:00:00,88.127,88.396,87.47,88.396,9912,0
2017-12-07,17:00:00,88.297,88.297,87.769,87.769,14024,0
2017-12-07,18:00:00,87.848,88.008,87.759,87.838,15089,0
2017-12-07,19:00:00,87.838,87.988,87.719,87.878,19392,0
2017-12-07,20:00:00,87.878,87.888,87.669,87.749,16263,0
2017-12-07,21:00:00,87.749,87.848,87.659,87.848,21682,0
2017-12-07,22:00:00,87.848,88.088,87.749,88.058,128188,0
2017-12-08,16:00:00,87.948,88.177,87.54,87.809,21256,0
2017-12-08,17:00:00,87.828,87.838,87.241,87.32,27169,0
2017-12-08,18:00:00,87.32,87.629,87.32,87.579,14494,0
2017-12-08,19:00:00,87.609,87.988,87.579,87.928,11002,0
2017-12-08,20:00:00,87.928,87.988,87.759,87.848,14528,0
2017-12-08,21:00:00,87.848,87.878,87.659,87.739,17291,0
2017-12-08,22:00:00,87.729,87.789,87.559,87.579,98592,0
2017-12-11,16:00:00,87.549,87.549,86.942,87.126,7783,0
2017-12-11,17:00:00,87.091,87.191,86.792,86.842,21971,0
2017-12-11,18:00:00,86.802,86.972,86.643,86.862,15299,0
2017-12-11,19:00:00,86.852,87.091,86.852,86.942,16439,0
2017-12-11,20:00:00,86.932,86.932,86.543,86.782,18171,0
2017-12-11,21:00:00,86.782,86.882,86.683,86.732,20369,0
2017-12-11,22:00:00,86.772,87.041,86.762,86.962,89553,0
2017-12-12,16:00:00,86.982,87.221,85.965,86.02,23747,0
2017-12-12,17:00:00,86.065,86.234,85.387,86.09,49131,0
2017-12-12,18:00:00,86.115,86.304,86.045,86.234,54150,0
2017-12-12,19:00:00,86.244,86.424,86.155,86.354,22033,0
2017-12-12,20:00:00,86.369,86.369,86.16,86.18,40588,0
2017-12-12,21:00:00,86.194,86.314,86.115,86.194,43232,0
2017-12-12,22:00:00,86.204,86.244,86.035,86.115,127576,0
2017-12-13,16:00:00,85.736,86.045,85.537,85.537,21030,0
2017-12-13,17:00:00,85.537,86.175,85.447,86.07,44346,0
2017-12-13,18:00:00,86.07,86.07,85.766,86.065,34475,0
2017-12-13,19:00:00,86.145,86.214,85.955,86.189,21613,0
2017-12-13,20:00:00,86.214,86.304,85.856,86.254,32547,0
2017-12-13,21:00:00,86.254,86.862,86.254,86.817,48713,0
2017-12-13,22:00:00,86.822,86.872,86.344,86.374,146297,0
2017-12-14,16:00:00,86.762,86.862,86.483,86.723,8371,0
2017-12-14,17:00:00,86.792,86.892,86.548,86.663,28919,0
2017-12-14,18:00:00,86.683,86.812,86.573,86.787,13532,0
2017-12-14,19:00:00,86.772,86.842,86.563,86.593,20524,0
2017-12-14,20:00:00,86.623,86.653,86.314,86.344,12742,0
2017-12-14,21:00:00,86.344,86.553,86.145,86.344,25269,0
2017-12-14,22:00:00,86.344,86.344,86.005,86.055,137352,0
2017-12-15,16:00:00,86.274,86.842,86.274,86.727,85826,0
2017-12-15,17:00:00,86.683,86.992,86.543,86.792,19520,0
2017-12-15,18:00:00,86.782,86.922,86.623,86.683,18892,0
2017-12-15,19:00:00,86.723,86.942,86.633,86.862,8527,0
2017-12-15,20:00:00,86.912,87.071,86.762,87.031,17905,0
2017-12-15,21:00:00,87.021,87.181,87.021,87.101,22562,0
2017-12-15,22:00:00,87.121,87.191,86.523,86.663,186946,0
2017-12-18,16:00:00,86.932,87.569,86.882,87.271,8925,0
2017-12-18,17:00:00,87.101,87.111,86.593,86.912,19690,0
2017-12-18,18:00:00,86.922,86.992,86.772,86.942,14650,0
2017-12-18,19:00:00,86.962,87.021,86.742,86.812,11658,0
2017-12-18,20:00:00,86.812,86.952,86.404,86.633,21888,0
2017-12-18,21:00:00,86.653,86.703,86.214,86.404,31411,0
2017-12-18,22:00:00,86.414,86.444,86.165,86.254,86737,0
2017-12-19,16:00:00,85.985,87.101,85.985,87.001,10153,0
2017-12-19,17:00:00,87.081,87.33,86.882,87.071,12937,0
2017-12-19,18:00:00,87.051,87.081,86.414,86.503,21084,0
2017-12-19,19:00:00,86.503,86.732,86.444,86.508,12866,0
2017-12-19,20:00:00,86.483,86.543,86.264,86.364,14765,0
2017-12-19,21:00:00,86.364,86.533,86.364,86.424,16229,0
2017-12-19,22:00:00,86.394,86.414,86.189,86.264,225854,0
2017-12-20,16:00:00,86.523,86.673,86.105,86.673,5837,0
2017-12-20,17:00:00,86.713,86.812,86.075,86.234,28607,0
2017-12-20,18:00:00,86.229,86.593,86.115,86.424,20371,0
2017-12-20,19:00:00,86.463,86.563,86.304,86.483,12864,0
2017-12-20,20:00:00,86.493,86.553,86.13,86.234,10639,0
2017-12-20,21:00:00,86.224,86.304,86.015,86.085,12720,0
2017-12-20,22:00:00,86.045,86.204,85.975,86.015,50770,0
2017-12-21,16:00:00,86.085,86.473,86.035,86.125,13572,0
2017-12-21,17:00:00,86.105,86.175,86.005,86.085,9121,0
2017-12-21,18:00:00,86.035,86.224,85.876,86.175,8889,0
2017-12-21,19:00:00,86.095,86.095,85.736,85.896,20346,0
2017-12-21,20:00:00,85.935,86.055,85.706,85.786,8336,0
2017-12-21,21:00:00,85.836,85.886,85.547,85.587,13433,0
2017-12-21,22:00:00,85.622,85.786,85.407,85.447,70959,0
2017-12-22,16:00:00,85.367,85.856,85.118,85.856,10741,0
2017-12-22,17:00:00,85.756,86.045,85.477,85.891,9742,0
2017-12-22,18:00:00,85.906,85.906,85.133,85.397,19194,0
2017-12-22,19:00:00,85.467,85.547,85.128,85.467,31446,0
2017-12-22,20:00:00,85.447,85.547,85.328,85.417,7787,0
2017-12-22,21:00:00,85.387,85.716,85.377,85.537,8968,0
2017-12-22,22:00:00,85.487,85.646,85.462,85.587,41621,0
2017-12-26,16:00:00,85.477,86.125,85.477,86.125,4011,0
2017-12-26,17:00:00,86.135,86.135,85.577,85.915,4755,0
2017-12-26,18:00:00,85.816,85.896,85.158,85.218,14295,0
2017-12-26,19:00:00,85.218,85.308,84.909,85.069,12867,0
2017-12-26,20:00:00,84.989,85.258,84.949,85.153,28068,0
2017-12-26,21:00:00,85.138,85.308,85.088,85.208,3671,0
2017-12-26,22:00:00,85.258,85.358,85.019,85.079,32154,0
2017-12-27,16:00:00,85.108,85.178,84.75,84.979,7937,0
2017-12-27,17:00:00,85.033,85.328,84.859,85.288,6870,0
2017-12-27,18:00:00,85.427,85.507,85.328,85.387,5734,0
2017-12-27,19:00:00,85.377,85.417,85.208,85.228,7533,0
2017-12-27,20:00:00,85.203,85.358,85.098,85.318,10878,0
2017-12-27,21:00:00,85.358,85.497,85.318,85.397,5348,0
2017-12-27,22:00:00,85.366,85.487,85.308,85.308,43001,0
2017-12-28,16:00:00,85.537,85.636,85.348,85.527,3898,0
2017-12-28,17:00:00,85.597,85.935,85.597,85.925,9659,0
2017-12-28,18:00:00,85.901,86.015,85.891,86.015,5821,0
2017-12-28,19:00:00,86.01,86.254,85.91,86.234,30476,0
2017-12-28,20:00:00,86.175,86.274,86.05,86.05,5986,0
2017-12-28,21:00:00,86.105,86.184,85.93,86.184,25597,0
2017-12-28,22:00:00,86.184,86.553,86.14,86.434,93135,0
2017-12-29,16:00:00,86.563,86.683,86.135,86.294,3116,0
2017-12-29,17:00:00,86.294,86.613,86.224,86.274,8573,0
2017-12-29,18:00:00,86.274,86.593,86.274,86.523,8008,0
2017-12-29,19:00:00,86.573,86.683,86.444,86.513,6261,0
2017-12-29,20:00:00,86.424,86.463,86.214,86.254,5236,0
2017-12-29,21:00:00,86.254,86.294,86.105,86.15,13061,0
2017-12-29,22:00:00,86.125,86.264,85.925,85.965,67481,0
2018-01-02,16:00:00,86.125,86.454,85.761,85.866,8592,0
2018-01-02,17:00:00,86.13,86.842,86.13,86.623,33435,0
2018-01-02,18:00:00,86.598,87.001,86.473,86.643,12780,0
2018-01-02,19:00:00,86.605,86.683,86.457,86.593,10349,0
2018-01-02,20:00:00,86.583,86.872,86.444,86.673,11863,0
2018-01-02,21:00:00,86.737,86.737,86.483,86.533,9246,0
2018-01-02,22:00:00,86.533,86.972,86.513,86.693,102553,0
2018-01-03,16:00:00,86.942,87.29,86.802,87.141,7546,0
2018-01-03,17:00:00,87.181,87.29,86.683,86.683,20743,0
2018-01-03,18:00:00,86.663,86.742,86.503,86.578,9255,0
2018-01-03,19:00:00,86.533,86.723,86.513,86.633,7225,0
2018-01-03,20:00:00,86.593,86.723,86.553,86.663,6927,0
2018-01-03,21:00:00,86.693,86.992,86.623,86.862,10170,0
2018-01-03,22:00:00,86.912,87.011,86.812,86.872,70945,0
2018-01-04,16:00:00,86.892,87.609,86.653,87.181,16045,0
2018-01-04,17:00:00,87.181,87.231,86.723,86.812,20812,0
2018-01-04,18:00:00,86.812,86.932,85.955,86.145,48138,0
2018-01-04,19:00:00,86.145,86.229,85.487,85.96,78810,0
2018-01-04,20:00:00,85.965,86.135,85.716,85.756,21793,0
2018-01-04,21:00:00,85.776,86.145,85.776,85.965,20018,0
2018-01-04,22:00:00,85.995,86.145,85.666,85.696,96274,0
2018-01-05,16:00:00,85.975,86.832,85.871,86.135,16050,0
2018-01-05,17:00:00,86.304,87.051,86.125,86.992,26476,0
2018-01-05,18:00:00,86.992,87.131,86.742,86.872,18561,0
2018-01-05,19:00:00,86.922,86.972,86.434,86.468,17085,0
2018-01-05,20:00:00,86.503,86.603,86.254,86.324,22326,0
2018-01-05,21:00:00,86.404,86.573,86.264,86.493,16251,0
2018-01-05,22:00:00,86.483,86.673,86.414,86.593,50975,0
2018-01-08,16:00:00,86.543,87.136,86.523,86.623,23058,0
2018-01-08,17:00:00,86.633,86.882,86.254,86.264,37742,0
2018-01-08,18:00:00,86.324,86.623,86.264,86.404,21482,0
2018-01-08,19:00:00,86.424,86.882,86.404,86.786,15517,0
2018-01-08,20:00:00,86.772,87.021,86.772,87.021,16557,0
2018-01-08,21:00:00,87.011,87.191,86.942,86.942,27475,0
2018-01-08,22:00:00,86.947,87.031,86.802,86.882,135066,0
2018-01-09,16:00:00,86.962,87.44,86.394,87.42,5214,0
2018-01-09,17:00:00,87.3,87.35,86.055,86.364,61600,0
2018-01-09,18:00:00,86.364,86.693,86.281,86.354,14441,0
2018-01-09,19:00:00,86.344,86.553,86.304,86.344,9560,0
2018-01-09,20:00:00,86.344,86.523,86.344,86.493,72999,0
2018-01-09,21:00:00,86.463,86.513,86.065,86.135,12248,0
2018-01-09,22:00:00,86.16,86.364,86.04,86.075,64277,0
2018-01-10,16:00:00,85.786,85.786,84.849,85.372,19019,0
2018-01-10,17:00:00,85.343,85.537,85.128,85.193,13163,0
2018-01-10,18:00:00,85.178,85.268,84.869,85.243,11358,0
2018-01-10,19:00:00,85.208,85.367,85.118,85.208,14390,0
2018-01-10,20:00:00,85.268,85.427,85.208,85.358,21319,0
2018-01-10,21:00:00,85.358,85.497,85.308,85.318,11361,0
2018-01-10,22:00:00,85.328,85.407,85.148,85.358,34236,0
2018-01-11,16:00:00,85.128,86.175,85.128,85.716,11515,0
2018-01-11,17:00:00,85.656,85.741,85.348,85.457,20989,0
2018-01-11,18:00:00,85.377,85.686,85.348,85.557,16010,0
2018-01-11,19:00:00,85.557,85.607,85.358,85.487,10760,0
2018-01-11,20:00:00,85.487,85.577,85.367,85.367,7836,0
2018-01-11,21:00:00,85.402,85.527,85.318,85.468,12171,0
2018-01-11,22:00:00,85.487,85.945,85.407,85.935,66381,0
2018-01-12,16:00:00,86.055,86.055,85.567,85.686,18405,0
2018-01-12,17:00:00,85.696,86.523,85.607,86.523,15409,0
2018-01-12,18:00:00,86.523,86.523,86.194,86.284,19286,0
2018-01-12,19:00:00,86.264,86.394,86.184,86.314,8422,0
2018-01-12,20:00:00,86.354,86.483,86.274,86.404,8012,0
2018-01-12,21:00:00,86.444,86.623,86.424,86.473,20992,0
2018-01-12,22:00:00,86.483,86.483,86.165,86.244,53669,0
2018-01-16,16:00:00,86.045,86.887,86.045,86.454,19648,0
2018-01-16,17:00:00,86.254,86.533,85.995,86.085,12203,0
2018-01-16,18:00:00,86.05,86.633,86.005,86.184,34998,0
2018-01-16,19:00:00,86.264,86.384,86.085,86.214,11424,0
2018-01-16,20:00:00,86.244,86.294,86.224,86.234,22626,0
2018-01-16,21:00:00,86.264,86.274,85.696,85.879,25965,0
2018-01-16,22:00:00,85.906,86.204,85.896,85.925,71584,0
2018-01-17,16:00:00,86.454,86.962,86.354,86.563,18830,0
2018-01-17,17:00:00,86.424,86.802,86.194,86.563,24492,0
2018-01-17,18:00:00,86.513,86.703,86.334,86.633,34160,0
2018-01-17,19:00:00,86.633,86.882,86.583,86.802,9297,0
2018-01-17,20:00:00,86.782,86.882,86.643,86.812,16308,0
2018-01-17,21:00:00,86.852,86.942,86.638,86.782,19870,0
2018-01-17,22:00:00,86.782,86.902,86.458,86.523,69285,0
2018-01-18,16:00:00,86.533,86.762,86.379,86.762,19647,0
2018-01-18,17:00:00,86.603,86.603,86.035,86.329,12943,0
2018-01-18,18:00:00,86.434,86.513,86.04,86.254,16303,0
2018-01-18,19:00:00,86.175,86.503,86.085,86.354,9053,0
2018-01-18,20:00:00,86.374,86.553,86.324,86.444,13346,0
2018-01-18,21:00:00,86.463,86.802,86.444,86.802,21957,0
2018-01-18,22:00:00,86.782,87.001,86.703,86.922,80071,0
2018-01-19,16:00:00,86.982,87.549,86.982,87.39,4248,0
2018-01-19,17:00:00,87.42,87.819,87.32,87.809,21048,0
2018-01-19,18:00:00,87.764,87.799,87.428,87.764,11428,0
2018-01-19,19:00:00,87.679,87.948,87.679,87.838,8628,0
2018-01-19,20:00:00,87.814,87.968,87.769,87.819,5827,0
2018-01-19,21:00:00,87.848,88.237,87.848,88.117,13241,0
2018-01-19,22:00:00,88.117,88.376,88.107,88.287,75553,0
2018-01-22,16:00:00,88.287,88.287,87.101,87.251,135797,0
2018-01-22,17:00:00,87.32,87.49,86.623,86.623,29194,0
2018-01-22,18:00:00,86.623,86.713,86.284,86.618,21023,0
2018-01-22,19:00:00,86.685,87.021,86.603,86.952,23627,0
2018-01-22,20:00:00,87.031,87.031,86.683,86.942,30357,0
2018-01-22,21:00:00,87.031,87.051,86.742,87.011,13911,0
2018-01-22,22:00:00,86.952,87.241,86.897,87.141,69035,0
2018-01-23,16:00:00,87.121,87.43,86.593,86.762,6359,0
2018-01-23,17:00:00,86.832,87.141,86.663,87.141,9997,0
2018-01-23,18:00:00,87.201,87.29,87.041,87.201,8424,0
2018-01-23,19:00:00,87.191,87.3,87.181,87.29,10175,0
2018-01-23,20:00:00,87.345,87.37,87.251,87.32,8631,0
2018-01-23,21:00:00,87.33,87.35,87.161,87.32,12176,0
2018-01-23,22:00:00,87.288,87.42,87.101,87.28,66297,0
2018-01-24,16:00:00,87.49,87.958,86.035,87.425,9614,0
2018-01-24,17:00:00,87.669,88.107,87.669,87.809,28861,0
2018-01-24,18:00:00,87.744,88.038,87.589,88.028,17168,0
2018-01-24,19:00:00,87.928,87.928,87.35,87.45,9305,0
2018-01-24,20:00:00,87.42,88.088,87.383,88.088,12613,0
2018-01-24,21:00:00,88.018,88.088,87.85,87.868,18861,0
2018-01-24,22:00:00,87.868,88.277,87.649,87.878,112486,0
2018-01-25,16:00:00,88.078,89.004,87.808,88.401,13953,0
2018-01-25,17:00:00,88.396,89.014,88.376,88.695,24893,0
2018-01-25,18:00:00,88.805,89.024,88.566,88.636,36593,0
2018-01-25,19:00:00,88.675,88.875,88.566,88.645,16204,0
2018-01-25,20:00:00,88.685,88.865,88.631,88.805,23584,0
2018-01-25,21:00:00,88.745,88.954,88.606,88.895,41642,0
2018-01-25,22:00:00,88.914,89.104,88.735,89.104,99264,0
2018-01-26,16:00:00,89.154,89.174,88.338,88.338,15173,0
2018-01-26,17:00:00,88.347,88.655,88.297,88.381,11290,0
2018-01-26,18:00:00,88.337,88.436,88.137,88.262,9684,0
2018-01-26,19:00:00,88.327,88.456,88.147,88.456,8824,0
2018-01-26,20:00:00,88.436,88.974,88.342,88.805,19194,0
2018-01-26,21:00:00,88.875,89.114,88.725,88.735,25673,0
2018-01-26,22:00:00,88.705,89.014,88.685,88.815,68189,0
2018-01-29,16:00:00,88.406,88.905,87.639,88.845,20796,0
2018-01-29,17:00:00,88.715,88.715,87.838,87.923,22931,0
2018-01-29,18:00:00,87.918,88.018,87.749,87.858,19764,0
2018-01-29,19:00:00,87.809,87.878,87.749,87.809,13851,0
2018-01-29,20:00:00,87.838,87.848,87.49,87.579,12591,0
2018-01-29,21:00:00,87.624,87.669,87.39,87.49,25619,0
2018-01-29,22:00:00,87.45,87.549,87.221,87.41,77379,0
2018-01-30,16:00:00,87.45,87.96,87.33,87.445,15642,0
2018-01-30,17:00:00,87.39,87.8,87.16,87.605,30268,0
2018-01-30,18:00:00,87.65,87.65,87.05,87.37,22836,0
2018-01-30,19:00:00,87.36,87.62,87.3,87.5,17235,0
2018-01-30,20:00:00,87.47,87.73,87.34,87.67,14443,0
2018-01-30,21:00:00,87.665,87.92,87.4505,87.75,36339,0
2018-01-30,22:00:00,87.68,87.8,87.59,87.69,139312,0
2018-01-31,16:00:00,88.09,88.1,87.16,87.56,13142,0
2018-01-31,17:00:00,87.56,87.72,87.3256,87.3256,21877,0
2018-01-31,18:00:00,87.33,87.46,87.18,87.18,15958,0
2018-01-31,19:00:00,87.17,87.42,87.17,87.34,55792,0
2018-01-31,20:00:00,87.33,87.33,86.85,87.09,24581,0
2018-01-31,21:00:00,87.05,87.305,86.76,87.24,29393,0
2018-01-31,22:00:00,87.19,87.48,87.165,87.42,238433,0
2018-02-01,16:00:00,87.24,87.63,86.66,86.9,11341,0
2018-02-01,17:00:00,86.945,86.945,85.81,85.92,41215,0
2018-02-01,18:00:00,85.95,86.66,85.87,86.66,11330,0
2018-02-01,19:00:00,86.7,86.94,86.64,86.92,5411,0
2018-02-01,20:00:00,86.92,86.95,86.68,86.81,9495,0
2018-02-01,21:00:00,86.88,87.01,86.6,86.96,21606,0
2018-02-01,22:00:00,86.93,86.93,86.56,86.84,63676,0
2018-02-02,16:00:00,86.53,86.91,86.34,86.38,5755,0
2018-02-02,17:00:00,86.42,86.565,86.18,86.18,13666,0
2018-02-02,18:00:00,86.17,86.355,85.875,85.93,15834,0
2018-02-02,19:00:00,85.945,86.37,85.89,86.345,12261,0
2018-02-02,20:00:00,86.28,86.38,85.99,86,12480,0
2018-02-02,21:00:00,86.025,86.05,85.54,85.54,23013,0
2018-02-02,22:00:00,85.67,85.98,85.6008,85.8,78039,0
2018-02-05,16:00:00,85.1,85.76,84.655,84.98,17400,0
2018-02-05,17:00:00,85.19,85.86,85.17,85.78,22369,0
2018-02-05,18:00:00,85.68,86,85.56,85.95,21240,0
2018-02-05,19:00:00,85.93,85.94,85.35,85.36,90344,0
2018-02-05,20:00:00,85.32,85.34,84.88,85.29,16305,0
2018-02-05,21:00:00,85.24,85.26,84.24,84.3,29011,0
2018-02-05,22:00:00,84.23,84.54,83.38,83.38,133751,0
2018-02-06,16:00:00,82.38,83.61,81.41,83.16,38983,0
2018-02-06,17:00:00,83.125,83.83,82.67,83.03,33853,0
2018-02-06,18:00:00,83.02,83.28,82.58,82.76,32442,0
2018-02-06,19:00:00,82.83,83.49,82.77,83.02,23634,0
2018-02-06,20:00:00,83.04,83.04,82.54,82.74,23543,0
2018-02-06,21:00:00,82.73,83.65,82.63,83.51,23534,0
2018-02-06,22:00:00,83.6,83.89,83.48,83.79,83648,0
2018-02-07,16:00:00,83.81,84.91,83.81,84.465,9576,0
2018-02-07,17:00:00,84.56,84.84,83.73,84.41,38424,0
2018-02-07,18:00:00,84.49,84.5456,83.9,84.34,31763,0
2018-02-07,19:00:00,84.45,84.57,84.35,84.495,19642,0
2018-02-07,20:00:00,84.48,84.5299,83.91,84.24,15315,0
2018-02-07,21:00:00,84.23,84.32,83.75,84,34812,0
2018-02-07,22:00:00,84.065,84.3,83.85,83.85,101196,0
2018-02-08,16:00:00,83.86,84.82,82.94,83.38,10106,0
2018-02-08,17:00:00,83.25,83.31,82.52,82.66,13582,0
2018-02-08,18:00:00,82.725,83.01,82.46,82.62,15576,0
2018-02-08,19:00:00,82.665,82.665,82.12,82.39,21901,0
2018-02-08,20:00:00,82.39,82.79,82.11,82.79,34338,0
2018-02-08,21:00:00,82.72,82.81,82.2913,82.41,21149,0
2018-02-08,22:00:00,82.44,82.555,81.36,81.38,90629,0
2018-02-09,16:00:00,82.09,82.45,81.8419,82.18,10489,0
2018-02-09,17:00:00,81.82,82.05,81.42,81.7056,35773,0
2018-02-09,18:00:00,81.66,81.9287,81.2,81.23,36540,0
2018-02-09,19:00:00,81.15,81.15,80.3,80.5,34144,0
2018-02-09,20:00:00,80.5,80.83,79.97,80.63,27882,0
2018-02-09,21:00:00,80.66,81.42,80.65,81.13,29937,0
2018-02-09,22:00:00,81.03,82.59,80.74,82.16,114000,0
2018-02-12,16:00:00,82.56,83.42,81.92,82.26,17519,0
2018-02-12,17:00:00,82.225,82.47,81.59,81.73,28829,0
2018-02-12,18:00:00,81.74,82.35,81.69,82.14,12147,0
2018-02-12,19:00:00,82.31,82.67,82.25,82.48,18104,0
2018-02-12,20:00:00,82.57,82.9,82.49,82.9,18583,0
2018-02-12,21:00:00,82.75,82.85,82.115,82.57,36986,0
2018-02-12,22:00:00,82.675,83,82.41,82.6,105215,0
2018-02-13,16:00:00,86.75,89.43,86.3,87.725,82441,0
2018-02-13,17:00:00,87.9,91.06,87.46,90.6799,136873,0
2018-02-13,18:00:00,90.68,92.32,90.25,91.89,117617,0
2018-02-13,19:00:00,91.82,91.825,90.51,90.78,78969,0
2018-02-13,20:00:00,90.76,91.15,89.76,90.39,110904,0
2018-02-13,21:00:00,90.47,90.715,89.44,90.1,131762,0
2018-02-13,22:00:00,90.1,90.51,89.59,89.72,269647,0
2018-02-14,16:00:00,89.58,89.87,88.74,89.32,59438,0
2018-02-14,17:00:00,89.36,90.69,89.325,90.3,71294,0
2018-02-14,18:00:00,90.19,90.3,89.63,89.91,40808,0
2018-02-14,19:00:00,89.85,90.04,89.67,89.98,34923,0
2018-02-14,20:00:00,89.98,90.72,89.93,90.678,32654,0
2018-02-14,21:00:00,90.72,90.87,90.25,90.25,50729,0
2018-02-14,22:00:00,90.305,90.78,90.305,90.66,108968,0
2018-02-15,16:00:00,90.18,91.05,90.18,91.05,26601,0
2018-02-15,17:00:00,90.98,91.97,90.98,91.57,30064,0
2018-02-15,18:00:00,91.46,91.74,91.25,91.55,12000,0
2018-02-15,19:00:00,91.56,91.7,91.49,91.53,24697,0
2018-02-15,20:00:00,91.51,91.59,91.31,91.38,23783,0
2018-02-15,21:00:00,91.43,91.5,91.06,91.17,37278,0
2018-02-15,22:00:00,91.17,91.32,90.88,91.17,115577,0
2018-02-16,16:00:00,91.04,91.22,90.49,91.11,11673,0
2018-02-16,17:00:00,91.19,91.52,90.98,91.3,23985,0
2018-02-16,18:00:00,91.39,91.95,91.36,91.925,46489,0
2018-02-16,19:00:00,91.9,92.13,91.65,91.76,37357,0
2018-02-16,20:00:00,91.81,91.94,91.43,91.83,29991,0
2018-02-16,21:00:00,91.85,92.05,91.42,92.05,23851,0
2018-02-16,22:00:00,92.05,92.14,91.81,91.83,105728,0
2018-02-20,16:00:00,91.04,91.98,90.715,91.865,24176,0
2018-02-20,17:00:00,91.823,92.145,91.6,91.72,32128,0
2018-02-20,18:00:00,91.72,91.78,91.465,91.7,39802,0
2018-02-20,19:00:00,91.701,91.77,91.36,91.52,17166,0
2018-02-20,20:00:00,91.44,91.47,90.96,91.1,12308,0
2018-02-20,21:00:00,91.12,91.285,90.82,91.07,55294,0
2018-02-20,22:00:00,91.08,91.3,90.99,91.06,101722,0
2018-02-21,16:00:00,91.34,92.28,90.83,91.43,19847,0
2018-02-21,17:00:00,91.38,91.5,91.07,91.21,29162,0
2018-02-21,18:00:00,91.36,91.43,90.61,90.91,40810,0
2018-02-21,19:00:00,90.959,91.05,90.61,90.99,25839,0
2018-02-21,20:00:00,90.94,91.08,90.74,90.85,17901,0
2018-02-21,21:00:00,90.81,91.29,90.8,90.99,24457,0
2018-02-21,22:00:00,90.9,90.92,90.11,90.16,69674,0
2018-02-22,16:00:00,90.44,91.46,90.44,91.27,21979,0
2018-02-22,17:00:00,91.1386,91.39,90.81,90.92,35824,0
2018-02-22,18:00:00,90.92,91.4299,90.76,91.15,39546,0
2018-02-22,19:00:00,91.22,91.22,90.965,91.07,13948,0
2018-02-22,20:00:00,91.1,91.13,90.72,90.84,28875,0
2018-02-22,21:00:00,90.9,91,90.53,90.67,12830,0
2018-02-22,22:00:00,90.68,90.88,90.31,90.61,60470,0
2018-02-23,16:00:00,90.74,90.88,89.965,89.965,41456,0
2018-02-23,17:00:00,90.22,90.66,89.93,90.42,28854,0
2018-02-23,18:00:00,90.59,90.59,90.11,90.28,34047,0
2018-02-23,19:00:00,90.26,90.28,89.96,90.23,13009,0
2018-02-23,20:00:00,90.15,90.25,89.97,90.18,14001,0
2018-02-23,21:00:00,90.27,90.48,90.15,90.48,19375,0
2018-02-23,22:00:00,90.425,91.07,90.425,90.99,55467,0
2018-02-26,16:00:00,91.28,91.48,90.555,91.23,9944,0
2018-02-26,17:00:00,91.285,91.29,90.55,90.81,13638,0
2018-02-26,18:00:00,90.68,90.83,90.465,90.82,17351,0
2018-02-26,19:00:00,90.76,90.84,90.73,90.74,22629,0
2018-02-26,20:00:00,90.82,90.82,90.391,90.75,33147,0
2018-02-26,21:00:00,90.76,90.84,90.59,90.7475,15769,0
2018-02-26,22:00:00,90.71,90.78,90.54,90.78,80524,0
2018-02-27,16:00:00,90.73,90.73,90.06,90.3,13839,0
2018-02-27,17:00:00,90.305,90.68,89.83,89.83,20008,0
2018-02-27,18:00:00,89.965,90.39,89.94,90.16,26331,0
2018-02-27,19:00:00,90.175,90.36,89.89,90.35,21507,0
2018-02-27,20:00:00,90.3,90.39,90.145,90.24,20755,0
2018-02-27,21:00:00,90.2,90.21,89.935,90.15,18341,0
2018-02-27,22:00:00,90.1,90.13,89.44,89.5,101933,0
2018-02-28,16:00:00,89.73,89.93,89.51,89.71,14777,0
2018-02-28,17:00:00,89.68,89.75,89.58,89.66,20922,0
2018-02-28,18:00:00,89.61,89.65,89.2101,89.64,16311,0
2018-02-28,19:00:00,89.575,89.78,89.535,89.7,22799,0
2018-02-28,20:00:00,89.735,89.95,89.65,89.92,7129,0
2018-02-28,21:00:00,89.96,90.41,89.81,89.93,27097,0
2018-02-28,22:00:00,89.88,89.96,89.38,89.42,130357,0
2018-03-01,16:00:00,89.24,90.49,88.93,89.36,13073,0
2018-03-01,17:00:00,89.2883,89.92,89.2883,89.57,15294,0
2018-03-01,18:00:00,89.72,90.09,89.6,89.89,14581,0
2018-03-01,19:00:00,89.87,89.87,89.25,89.4,14972,0
2018-03-01,20:00:00,89.34,89.34,88.64,88.74,18500,0
2018-03-01,21:00:00,88.6448,88.72,88.31,88.53,24404,0
2018-03-01,22:00:00,88.5,89.12,88.405,89,76705,0
2018-03-02,16:00:00,88.74,88.77,88.3,88.435,16206,0
2018-03-02,17:00:00,88.46,89.43,88.41,89.43,28017,0
2018-03-02,18:00:00,89.27,89.41,88.841,89.35,15461,0
2018-03-02,19:00:00,89.315,89.61,89.2201,89.61,14424,0
2018-03-02,20:00:00,89.59,89.59,89.09,89.16,16139,0
2018-03-02,21:00:00,89.2,89.68,89.1,89.51,52701,0
2018-03-02,22:00:00,89.46,89.89,89.32,89.68,75489,0
2018-03-05,16:00:00,89.31,90.01,89.31,89.79,18000,0
2018-03-05,17:00:00,89.66,90.06,89.66,89.99,18429,0
2018-03-05,18:00:00,90.12,90.38,90.115,90.3,10536,0
2018-03-05,19:00:00,90.36,90.43,90.11,90.3725,7470,0
2018-03-05,20:00:00,90.41,90.445,90.17,90.34,15700,0
2018-03-05,21:00:00,90.35,90.45,90.18,90.35,17015,0
2018-03-05,22:00:00,90.35,90.7,90.16,90.4,82213,0
2018-03-06,16:00:00,90.37,90.41,89.625,89.625,6563,0
2018-03-06,17:00:00,89.74,89.96,89.28,89.3,17406,0
2018-03-06,18:00:00,89.34,89.75,89.32,89.7474,15329,0
2018-03-06,19:00:00,89.755,89.98,89.645,89.98,10141,0
2018-03-06,20:00:00,90.03,90.92,89.91,90.6,43633,0
2018-03-06,21:00:00,90.63,90.87,90.48,90.62,25190,0
2018-03-06,22:00:00,90.69,91.05,90.55,90.77,125980,0
2018-03-07,16:00:00,89.98,90.77,89.71,90.76,11090,0
2018-03-07,17:00:00,90.74,91.14,90.68,90.845,14613,0
2018-03-07,18:00:00,90.83,90.84,90.03,90.03,14400,0
2018-03-07,19:00:00,90.095,90.17,89.85,89.96,23341,0
2018-03-07,20:00:00,89.98,90.085,89.76,89.93,30814,0
2018-03-07,21:00:00,89.95,90.12,89.84,90.06,33331,0
2018-03-07,22:00:00,90.06,90.39,89.97,90.14,123608,0
2018-03-08,16:00:00,90.4,90.73,89.86,90.32,6761,0
2018-03-08,17:00:00,90.41,90.83,90.41,90.45,14659,0
2018-03-08,18:00:00,90.45,90.45,90.11,90.2,11748,0
2018-03-08,19:00:00,90.225,90.26,89.74,89.77,16170,0
2018-03-08,20:00:00,89.78,89.83,89.49,89.72,35442,0
2018-03-08,21:00:00,89.7,89.84,89.45,89.73,18778,0
2018-03-08,22:00:00,89.78,90.06,89.63,89.95,95129,0
2018-03-09,16:00:00,89.94,90.43,89.56,90.22,14185,0
2018-03-09,17:00:00,90.13,90.785,90.11,90.57,17940,0
2018-03-09,18:00:00,90.61,90.87,90.49,90.7714,22908,0
2018-03-09,19:00:00,90.73,90.73,90.04,90.245,53179,0
2018-03-09,20:00:00,90.18,90.7,90.18,90.47,30083,0
2018-03-09,21:00:00,90.39,90.95,90.39,90.83,26044,0
2018-03-09,22:00:00,90.76,90.92,90.69,90.87,74511,0
2018-03-12,15:00:00,90.7,90.985,90.59,90.59,6436,0
2018-03-12,16:00:00,90.68,90.9,90.585,90.585,17409,0
2018-03-12,17:00:00,90.63,90.64,90.4,90.57,27035,0
2018-03-12,18:00:00,90.51,90.8,90.455,90.64,9148,0
2018-03-12,19:00:00,90.61,90.77,90.535,90.61,10171,0
2018-03-12,20:00:00,90.575,90.79,90.51,90.68,16133,0
2018-03-12,21:00:00,90.76,90.9,90.65,90.78,59522,0
2018-03-13,15:00:00,91.27,91.82,91.27,91.58,10671,0
2018-03-13,16:00:00,91.77,92.07,91.64,92.02,18618,0
2018-03-13,17:00:00,91.97,92.1,91.36,91.36,8324,0
2018-03-13,18:00:00,91.32,91.76,91.19,91.68,13674,0
2018-03-13,19:00:00,91.61,91.6816,91.48,91.59,8525,0
2018-03-13,20:00:00,91.58,91.62,90.9,90.92,25655,0
2018-03-13,21:00:00,90.93,90.93,90.27,90.5,111608,0
2018-03-14,15:00:00,90.96,91.265,90.45,90.5,9867,0
2018-03-14,16:00:00,90.52,90.59,89.43,89.825,20782,0
2018-03-14,17:00:00,89.83,90.01,89.54,89.69,11130,0
2018-03-14,18:00:00,89.6901,89.93,89.64,89.81,10738,0
2018-03-14,19:00:00,89.79,90.02,89.55,89.925,9612,0
2018-03-14,20:00:00,89.875,90,89.665,89.965,26453,0
2018-03-14,21:00:00,89.96,90.24,89.7709,90.07,119865,0
2018-03-15,15:00:00,90.14,90.565,90.13,90.195,2469,0
2018-03-15,16:00:00,90.24,90.425,89.99,90.22,7578,0
2018-03-15,17:00:00,90.3,90.54,90.1,90.1,9805,0
2018-03-15,18:00:00,90.1,90.17,89.8,90.11,16714,0
2018-03-15,19:00:00,90.13,90.35,89.985,90,18785,0
2018-03-15,20:00:00,90.03,90.21,89.87,90,24606,0
2018-03-15,21:00:00,89.95,90.39,89.92,90.28,109294,0
2018-03-16,15:00:00,90.35,91.13,90.0301,90.16,81835,0
2018-03-16,16:00:00,90.03,90.36,90.03,90.14,10184,0
2018-03-16,17:00:00,90.16,90.27,89.95,90.27,28606,0
2018-03-16,18:00:00,90.15,90.25,89.93,89.97,10327,0
2018-03-16,19:00:00,90.08,90.09,89.755,89.86,18370,0
2018-03-16,20:00:00,89.91,90.09,89.83,90.03,13423,0
2018-03-16,21:00:00,90.02,90.5,89.93,90.15,155199,0
2018-03-19,15:00:00,90.06,90.12,89.779,90,5837,0
2018-03-19,16:00:00,90.1,90.36,89.92,89.93,5480,0
2018-03-19,17:00:00,89.92,90.105,89.89,89.89,4815,0
2018-03-19,18:00:00,89.88,89.97,89.75,89.89,11413,0
2018-03-19,19:00:00,89.95,89.95,89.48,89.71,8282,0
2018-03-19,20:00:00,89.77,89.95,89.45,89.82,14845,0
2018-03-19,21:00:00,89.8,90.14,89.78,89.96,67427,0
2018-03-20,15:00:00,90.02,90.49,90.02,90.45,4016,0
2018-03-20,16:00:00,90.31,90.39,89.86,90.07,11542,0
2018-03-20,17:00:00,90.11,90.15,89.94,89.975,11337,0
2018-03-20,18:00:00,89.975,90.11,89.815,90.01,10613,0
2018-03-20,19:00:00,89.95,90,89.67,89.73,19322,0
2018-03-20,20:00:00,89.735,89.99,89.73,89.91,29564,0
2018-03-20,21:00:00,89.91,89.98,89.74,89.78,117735,0
2018-03-21,15:00:00,89.71,90.1099,89.71,90.04,2822,0
2018-03-21,16:00:00,89.905,90.21,89.61,90.12,31869,0
2018-03-21,17:00:00,90.07,90.29,90.041,90.29,10500,0
2018-03-21,18:00:00,90.19,90.23,90.05,90.1375,16285,0
2018-03-21,19:00:00,90.16,90.16,89.79,89.96,18642,0
2018-03-21,20:00:00,89.96,90.335,89.39,89.56,38712,0
2018-03-21,21:00:00,89.6,90.09,89.59,89.59,106846,0
2018-03-22,15:00:00,89.22,89.91,89.22,89.49,15503,0
2018-03-22,16:00:00,89.4101,89.6,89.0501,89.0501,12524,0
2018-03-22,17:00:00,89.15,89.2,88.79,88.87,13068,0
2018-03-22,18:00:00,88.92,89.51,88.8,89.425,19725,0
2018-03-22,19:00:00,89.37,89.83,89.32,89.6001,14631,0
2018-03-22,20:00:00,89.66,89.68,88.95,88.95,18321,0
2018-03-22,21:00:00,88.88,89.07,87.9301,87.96,102528,0
2018-03-23,15:00:00,87.94,88.565,87.75,88.14,17674,0
2018-03-23,16:00:00,88.12,88.425,87.76,87.99,17051,0
2018-03-23,17:00:00,87.94,88.06,87.49,87.53,12815,0
2018-03-23,18:00:00,87.55,88,87.55,87.86,15694,0
2018-03-23,19:00:00,87.91,88.07,87.7687,87.9785,13671,0
2018-03-23,20:00:00,88.06,88.09,87.161,87.23,17348,0
2018-03-23,21:00:00,87.22,87.45,86.69,86.77,67283,0
2018-03-26,16:00:00,87.66,88.2599,87.07,87.625,8493,0
2018-03-26,17:00:00,87.63,88.21,87.63,88.02,19137,0
2018-03-26,18:00:00,87.92,87.95,87.55,87.7,10639,0
2018-03-26,19:00:00,87.81,88.1439,87.7,87.82,12423,0
2018-03-26,20:00:00,87.787,88.12,87.78,88.02,15589,0
2018-03-26,21:00:00,87.9744,88.55,87.9744,88.17,21322,0
2018-03-26,22:00:00,88.22,88.37,88.15,88.21,119308,0
2018-03-27,16:00:00,88.52,88.52,87.62,88.05,9900,0
2018-03-27,17:00:00,88.1702,88.3,88.06,88.18,17062,0
2018-03-27,18:00:00,88.18,88.53,88.08,88.53,16948,0
2018-03-27,19:00:00,88.635,88.98,88.56,88.94,20269,0
2018-03-27,20:00:00,88.955,89.03,88.58,88.84,42028,0
2018-03-27,21:00:00,88.89,89.13,88.44,88.44,25062,0
2018-03-27,22:00:00,88.485,88.52,87.79,88.08,63934,0
2018-03-28,16:00:00,88.08,88.8,87.82,88.6,22417,0
2018-03-28,17:00:00,88.75,88.8,87.84,87.995,10959,0
2018-03-28,18:00:00,87.995,88.52,87.89,88.16,13363,0
2018-03-28,19:00:00,88.16,88.62,88.11,88.17,9833,0
2018-03-28,20:00:00,88.03,88.62,88.01,88.41,14875,0
2018-03-28,21:00:00,88.44,88.9,88.31,88.42,12927,0
2018-03-28,22:00:00,88.395,88.5421,88.11,88.36,55495,0
2018-03-29,16:00:00,88.88,89.39,88.36,89.15,6208,0
2018-03-29,17:00:00,89.21,89.27,88.83,89.115,14768,0
2018-03-29,18:00:00,89.17,89.34,89.075,89.24,13116,0
2018-03-29,19:00:00,89.22,89.87,89.11,89.76,14475,0
2018-03-29,20:00:00,89.73,89.965,89.68,89.84,22817,0
2018-03-29,21:00:00,89.8,90.34,89.76,90.14,20069,0
2018-03-29,22:00:00,90.08,90.25,89.64,89.83,132200,0
